# Wavelength (nm)	Total Extinction Cross-Section (micron**2)	w_0	g	Q_Scattering
1.9000000e+02		2.6824650e+00		6.9209619e-01		7.1398657e-01		1.5493729e+00
1.9100000e+02		2.6837240e+00		6.9200231e-01		7.1405420e-01		1.5498898e+00
1.9200000e+02		2.6850455e+00		6.9200094e-01		7.1402630e-01		1.5506500e+00
1.9300000e+02		2.6863636e+00		6.9201847e-01		7.1397632e-01		1.5514505e+00
1.9400000e+02		2.6877486e+00		6.9217905e-01		7.1377360e-01		1.5526106e+00
1.9500000e+02		2.6891694e+00		6.9228883e-01		7.1363600e-01		1.5536776e+00
1.9600000e+02		2.6905875e+00		6.9210136e-01		7.1384019e-01		1.5540761e+00
1.9700000e+02		2.6917262e+00		6.9174321e-01		7.1419264e-01		1.5539292e+00
1.9800000e+02		2.6926112e+00		6.9101503e-01		7.1492864e-01		1.5528038e+00
1.9900000e+02		2.6927619e+00		6.8901470e-01		7.1701641e-01		1.5483954e+00
2.0000000e+02		2.6923666e+00		6.8612042e-01		7.2007781e-01		1.5416649e+00
2.0100000e+02		2.6914477e+00		6.8259889e-01		7.2383248e-01		1.5332288e+00
2.0200000e+02		2.6903821e+00		6.7902473e-01		7.2767952e-01		1.5245968e+00
2.0300000e+02		2.6912785e+00		6.7874951e-01		7.2790411e-01		1.5244866e+00
2.0400000e+02		2.6922167e+00		6.7854454e-01		7.2805128e-01		1.5245576e+00
2.0500000e+02		2.6932340e+00		6.7855936e-01		7.2794550e-01		1.5251669e+00
2.0600000e+02		2.6942132e+00		6.7855622e-01		7.2785487e-01		1.5257144e+00
2.0700000e+02		2.6953390e+00		6.7845237e-01		7.2791500e-01		1.5261183e+00
2.0800000e+02		2.6963816e+00		6.7823161e-01		7.2810223e-01		1.5262119e+00
2.0900000e+02		2.6972421e+00		6.7791586e-01		7.2837133e-01		1.5259882e+00
2.1000000e+02		2.6983694e+00		6.7801825e-01		7.2818090e-01		1.5268565e+00
2.1100000e+02		2.6996439e+00		6.7831882e-01		7.2777730e-01		1.5282549e+00
2.1200000e+02		2.7008008e+00		6.7843355e-01		7.2757856e-01		1.5291684e+00
2.1300000e+02		2.7018228e+00		6.7834264e-01		7.2760494e-01		1.5295421e+00
2.1400000e+02		2.7027983e+00		6.7818039e-01		7.2770958e-01		1.5297283e+00
2.1500000e+02		2.7038889e+00		6.7820961e-01		7.2760330e-01		1.5304115e+00
2.1600000e+02		2.7050504e+00		6.7835114e-01		7.2737427e-01		1.5313885e+00
2.1700000e+02		2.7060737e+00		6.7820961e-01		7.2746329e-01		1.5316481e+00
2.1800000e+02		2.7070581e+00		6.7800601e-01		7.2762067e-01		1.5317453e+00
2.1900000e+02		2.7080729e+00		6.7784585e-01		7.2773122e-01		1.5319576e+00
2.2000000e+02		2.7091230e+00		6.7781501e-01		7.2769163e-01		1.5324819e+00
2.2100000e+02		2.7101298e+00		6.7778449e-01		7.2764394e-01		1.5329824e+00
2.2200000e+02		2.7111685e+00		6.7781643e-01		7.2752676e-01		1.5336422e+00
2.2300000e+02		2.7122047e+00		6.7785674e-01		7.2739939e-01		1.5343196e+00
2.2400000e+02		2.7132496e+00		6.7785439e-01		7.2732558e-01		1.5349054e+00
2.2500000e+02		2.7143088e+00		6.7783312e-01		7.2727752e-01		1.5354564e+00
2.2600000e+02		2.7153941e+00		6.7777815e-01		7.2727515e-01		1.5359457e+00
2.2700000e+02		2.7164465e+00		6.7769211e-01		7.2730456e-01		1.5363460e+00
2.2800000e+02		2.7173255e+00		6.7741796e-01		7.2752998e-01		1.5362214e+00
2.2900000e+02		2.7181055e+00		6.7696437e-01		7.2795490e-01		1.5356334e+00
2.3000000e+02		2.7166545e+00		6.7313352e-01		7.3209645e-01		1.5261284e+00
2.3100000e+02		2.7150526e+00		6.6923329e-01		7.3636332e-01		1.5163911e+00
2.3200000e+02		2.7141217e+00		6.6639305e-01		7.3948292e-01		1.5094378e+00
2.3300000e+02		2.7129398e+00		6.6320783e-01		7.4303175e-01		1.5015688e+00
2.3400000e+02		2.7102439e+00		6.5797638e-01		7.4899507e-01		1.4882439e+00
2.3500000e+02		2.7074944e+00		6.5279530e-01		7.5500320e-01		1.4750272e+00
2.3600000e+02		2.7047857e+00		6.4778287e-01		7.6090912e-01		1.4622370e+00
2.3700000e+02		2.7020449e+00		6.4282893e-01		7.6683687e-01		1.4495841e+00
2.3800000e+02		2.6994278e+00		6.3810500e-01		7.7257250e-01		1.4375379e+00
2.3900000e+02		2.6968946e+00		6.3355111e-01		7.7817741e-01		1.4259394e+00
2.4000000e+02		2.6946816e+00		6.2950990e-01		7.8319490e-01		1.4156812e+00
2.4100000e+02		2.6934360e+00		6.2672415e-01		7.8665427e-01		1.4087649e+00
2.4200000e+02		2.6942744e+00		6.2655618e-01		7.8676344e-01		1.4088257e+00
2.4300000e+02		2.6950952e+00		6.2635935e-01		7.8691131e-01		1.4088122e+00
2.4400000e+02		2.6958507e+00		6.2604953e-01		7.8721070e-01		1.4085101e+00
2.4500000e+02		2.6966313e+00		6.2579854e-01		7.8742985e-01		1.4083531e+00
2.4600000e+02		2.6976256e+00		6.2586035e-01		7.8723829e-01		1.4090115e+00
2.4700000e+02		2.6985384e+00		6.2575962e-01		7.8726744e-01		1.4092614e+00
2.4800000e+02		2.6993396e+00		6.2555115e-01		7.8742976e-01		1.4092102e+00
2.4900000e+02		2.7001245e+00		6.2534504e-01		7.8758520e-01		1.4091556e+00
2.5000000e+02		2.7008968e+00		6.2513549e-01		7.8774319e-01		1.4090863e+00
2.5100000e+02		2.7017144e+00		6.2497123e-01		7.8784527e-01		1.4091425e+00
2.5200000e+02		2.7025393e+00		6.2481109e-01		7.8794331e-01		1.4092116e+00
2.5300000e+02		2.7021885e+00		6.2322068e-01		7.8988310e-01		1.4054420e+00
2.5400000e+02		2.7017570e+00		6.2154127e-01		7.9194616e-01		1.4014309e+00
2.5500000e+02		2.7015255e+00		6.2011313e-01		7.9369101e-01		1.3980910e+00
2.5600000e+02		2.7013257e+00		6.1873132e-01		7.9538141e-01		1.3948724e+00
2.5700000e+02		2.7013960e+00		6.1767464e-01		7.9665294e-01		1.3925265e+00
2.5800000e+02		2.7015496e+00		6.1671612e-01		7.9780006e-01		1.3904446e+00
2.5900000e+02		2.7021068e+00		6.1625155e-01		7.9829930e-01		1.3896837e+00
2.6000000e+02		2.7027402e+00		6.1588546e-01		7.9866854e-01		1.3891837e+00
2.6100000e+02		2.7036616e+00		6.1584513e-01		7.9861393e-01		1.3895664e+00
2.6200000e+02		2.7045042e+00		6.1570050e-01		7.9869870e-01		1.3896730e+00
2.6300000e+02		2.7050789e+00		6.1539538e-01		7.9896303e-01		1.3892794e+00
2.6400000e+02		2.7057331e+00		6.1522002e-01		7.9905032e-01		1.3892194e+00
2.6500000e+02		2.7064857e+00		6.1501769e-01		7.9920207e-01		1.3891489e+00
2.6600000e+02		2.7072895e+00		6.1482483e-01		7.9935197e-01		1.3891257e+00
2.6700000e+02		2.7081387e+00		6.1471669e-01		7.9938469e-01		1.3893170e+00
2.6800000e+02		2.7090154e+00		6.1464207e-01		7.9937351e-01		1.3895981e+00
2.6900000e+02		2.7099876e+00		6.1469384e-01		7.9919387e-01		1.3902138e+00
2.7000000e+02		2.7109617e+00		6.1474602e-01		7.9901450e-01		1.3908316e+00
2.7100000e+02		2.7114389e+00		6.1419579e-01		7.9962992e-01		1.3898313e+00
2.7200000e+02		2.7118606e+00		6.1358487e-01		8.0032550e-01		1.3886649e+00
2.7300000e+02		2.7125551e+00		6.1329863e-01		8.0059402e-01		1.3883725e+00
2.7400000e+02		2.7133736e+00		6.1316870e-01		8.0065499e-01		1.3884972e+00
2.7500000e+02		2.7141728e+00		6.1306015e-01		8.0067903e-01		1.3886603e+00
2.7600000e+02		2.7149592e+00		6.1293794e-01		8.0072108e-01		1.3887857e+00
2.7700000e+02		2.7147229e+00		6.1164454e-01		8.0230227e-01		1.3857346e+00
2.7800000e+02		2.7141993e+00		6.1002762e-01		8.0431543e-01		1.3818047e+00
2.7900000e+02		2.7126866e+00		6.0729064e-01		8.0782362e-01		1.3748384e+00
2.8000000e+02		2.7116970e+00		6.0515209e-01		8.1055564e-01		1.3694972e+00
2.8100000e+02		2.7110146e+00		6.0335375e-01		8.1284741e-01		1.3650838e+00
2.8200000e+02		2.7115919e+00		6.0297756e-01		8.1323720e-01		1.3645232e+00
2.8300000e+02		2.7123076e+00		6.0273255e-01		8.1345686e-01		1.3643287e+00
2.8400000e+02		2.7133424e+00		6.0286014e-01		8.1317410e-01		1.3651382e+00
2.8500000e+02		2.7142409e+00		6.0285026e-01		8.1307275e-01		1.3655679e+00
2.8600000e+02		2.7149772e+00		6.0266504e-01		8.1320532e-01		1.3655187e+00
2.8700000e+02		2.7157676e+00		6.0256469e-01		8.1321912e-01		1.3656887e+00
2.8800000e+02		2.7165964e+00		6.0250852e-01		8.1317379e-01		1.3659782e+00
2.8900000e+02		2.7173379e+00		6.0236162e-01		8.1324878e-01		1.3660179e+00
2.9000000e+02		2.7180441e+00		6.0217954e-01		8.1337031e-01		1.3659598e+00
2.9100000e+02		2.7186448e+00		6.0188090e-01		8.1364811e-01		1.3655842e+00
2.9200000e+02		2.7192597e+00		6.0157407e-01		8.1394279e-01		1.3651967e+00
2.9300000e+02		2.7199437e+00		6.0133984e-01		8.1414157e-01		1.3650084e+00
2.9400000e+02		2.7206054e+00		6.0107865e-01		8.1437747e-01		1.3647475e+00
2.9500000e+02		2.7212825e+00		6.0083452e-01		8.1459094e-01		1.3645327e+00
2.9600000e+02		2.7221666e+00		6.0079489e-01		8.1453637e-01		1.3648860e+00
2.9700000e+02		2.7220826e+00		5.9967778e-01		8.1592959e-01		1.3623061e+00
2.9800000e+02		2.7205380e+00		5.9703655e-01		8.1936120e-01		1.3555363e+00
2.9900000e+02		2.7173266e+00		5.9255579e-01		8.2531570e-01		1.3437749e+00
3.0000000e+02		2.7172553e+00		5.9156832e-01		8.2652990e-01		1.3415004e+00
3.0100000e+02		2.7170854e+00		5.9046980e-01		8.2789901e-01		1.3389255e+00
3.0200000e+02		2.7156487e+00		5.8794378e-01		8.3123791e-01		1.3324927e+00
3.0300000e+02		2.7142891e+00		5.8549668e-01		8.3448479e-01		1.3262823e+00
3.0400000e+02		2.7130260e+00		5.8314934e-01		8.3760901e-01		1.3203504e+00
3.0500000e+02		2.7117720e+00		5.8078624e-01		8.4077352e-01		1.3143921e+00
3.0600000e+02		2.7104613e+00		5.7834405e-01		8.4406538e-01		1.3082325e+00
3.0700000e+02		2.7091424e+00		5.7587616e-01		8.4741176e-01		1.3020162e+00
3.0800000e+02		2.7076580e+00		5.7321728e-01		8.5104829e-01		1.2952945e+00
3.0900000e+02		2.7066276e+00		5.7108118e-01		8.5396040e-01		1.2899765e+00
3.1000000e+02		2.7060997e+00		5.6952947e-01		8.5604742e-01		1.2862205e+00
3.1100000e+02		2.7056910e+00		5.6811872e-01		8.5794156e-01		1.2828407e+00
3.1200000e+02		2.7054103e+00		5.6686109e-01		8.5962344e-01		1.2798681e+00
3.1300000e+02		2.7052437e+00		5.6574371e-01		8.6110957e-01		1.2772666e+00
3.1400000e+02		2.7051885e+00		5.6476399e-01		8.6240159e-01		1.2750287e+00
3.1500000e+02		2.7053279e+00		5.6399875e-01		8.6338237e-01		1.2733667e+00
3.1600000e+02		2.7056112e+00		5.6338137e-01		8.6414680e-01		1.2721060e+00
3.1700000e+02		2.7059127e+00		5.6278785e-01		8.6487835e-01		1.2709075e+00
3.1800000e+02		2.7062297e+00		5.6221152e-01		8.6558717e-01		1.2697547e+00
3.1900000e+02		2.7065886e+00		5.6167956e-01		8.6623125e-01		1.2687215e+00
3.2000000e+02		2.7069734e+00		5.6117912e-01		8.6682920e-01		1.2677713e+00
3.2100000e+02		2.7074075e+00		5.6075811e-01		8.6730556e-01		1.2670234e+00
3.2200000e+02		2.7078526e+00		5.6037965e-01		8.6771663e-01		1.2663764e+00
3.2300000e+02		2.7083028e+00		5.6001061e-01		8.6811431e-01		1.2657528e+00
3.2400000e+02		2.7087579e+00		5.5965025e-01		8.6849996e-01		1.2651509e+00
3.2500000e+02		2.7091891e+00		5.5928390e-01		8.6889720e-01		1.2645240e+00
3.2600000e+02		2.7096218e+00		5.5892708e-01		8.6928349e-01		1.2639191e+00
3.2700000e+02		2.7100859e+00		5.5859313e-01		8.6964115e-01		1.2633803e+00
3.2800000e+02		2.7105973e+00		5.5828308e-01		8.6997437e-01		1.2629173e+00
3.2900000e+02		2.7112287e+00		5.5802570e-01		8.7023863e-01		1.2626291e+00
3.3000000e+02		2.7119225e+00		5.5777924e-01		8.7050689e-01		1.2623944e+00
3.3100000e+02		2.7126950e+00		5.5755313e-01		8.7076946e-01		1.2622421e+00
3.3200000e+02		2.7135629e+00		5.5735028e-01		8.7102965e-01		1.2621866e+00
3.3300000e+02		2.7145622e+00		5.5714805e-01		8.7133065e-01		1.2621932e+00
3.3400000e+02		2.7156830e+00		5.5697109e-01		8.7163694e-01		1.2623133e+00
3.3500000e+02		2.7168539e+00		5.5681909e-01		8.7192054e-01		1.2625130e+00
3.3600000e+02		2.7180500e+00		5.5670262e-01		8.7216517e-01		1.2628046e+00
3.3700000e+02		2.7191777e+00		5.5659316e-01		8.7237965e-01		1.2630801e+00
3.3800000e+02		2.7202310e+00		5.5649862e-01		8.7256168e-01		1.2633548e+00
3.3900000e+02		2.7211728e+00		5.5644099e-01		8.7267705e-01		1.2636613e+00
3.4000000e+02		2.7218820e+00		5.5640013e-01		8.7272245e-01		1.2638978e+00
3.4100000e+02		2.7222174e+00		5.5635850e-01		8.7268377e-01		1.2639590e+00
3.4200000e+02		2.7220698e+00		5.5630802e-01		8.7254408e-01		1.2637757e+00
3.4300000e+02		2.7213867e+00		5.5625302e-01		8.7228432e-01		1.2633337e+00
3.4400000e+02		2.7201076e+00		5.5629340e-01		8.7181134e-01		1.2628316e+00
3.4500000e+02		2.7179911e+00		5.5653853e-01		8.7097793e-01		1.2624050e+00
3.4600000e+02		2.7149114e+00		5.5686090e-01		8.6986265e-01		1.2617050e+00
3.4700000e+02		2.7109036e+00		5.5728766e-01		8.6845805e-01		1.2608080e+00
3.4800000e+02		2.7063515e+00		5.5772058e-01		8.6694230e-01		1.2596686e+00
3.4900000e+02		2.7017107e+00		5.5810579e-01		8.6547915e-01		1.2583771e+00
3.5000000e+02		2.6970663e+00		5.5874325e-01		8.6384424e-01		1.2576488e+00
3.5100000e+02		2.6925465e+00		5.5963930e-01		8.6208207e-01		1.2575546e+00
3.5200000e+02		2.6881996e+00		5.6097668e-01		8.6005954e-01		1.2585248e+00
3.5300000e+02		2.6842960e+00		5.6287667e-01		8.5772748e-01		1.2609536e+00
3.5400000e+02		2.6819253e+00		5.6496263e-01		8.5558536e-01		1.2645087e+00
3.5500000e+02		2.6811898e+00		5.6747037e-01		8.5342576e-01		1.2697733e+00
3.5600000e+02		2.6821199e+00		5.7061919e-01		8.5105893e-01		1.2772620e+00
3.5700000e+02		2.6849344e+00		5.7447058e-01		8.4849148e-01		1.2872323e+00
3.5800000e+02		2.6895695e+00		5.7893399e-01		8.4581700e-01		1.2994730e+00
3.5900000e+02		2.6959069e+00		5.8413474e-01		8.4300766e-01		1.3142360e+00
3.6000000e+02		2.7044032e+00		5.8925677e-01		8.4086976e-01		1.3299382e+00
3.6100000e+02		2.7145136e+00		5.9491324e-01		8.3889866e-01		1.3477244e+00
3.6200000e+02		2.7265160e+00		6.0176238e-01		8.3670134e-01		1.3692682e+00
3.6300000e+02		2.7401281e+00		6.0943494e-01		8.3441917e-01		1.3936498e+00
3.6400000e+02		2.7549254e+00		6.1780850e-01		8.3193633e-01		1.4204278e+00
3.6500000e+02		2.7705424e+00		6.2695094e-01		8.2899606e-01		1.4496187e+00
3.6600000e+02		2.7867299e+00		6.3745112e-01		8.2500024e-01		1.4825085e+00
3.6700000e+02		2.8036328e+00		6.4873981e-01		8.2019256e-01		1.5179138e+00
3.6800000e+02		2.8200008e+00		6.5812481e-01		8.1603358e-01		1.5488628e+00
3.6900000e+02		2.8355663e+00		6.6765804e-01		8.1140876e-01		1.5799718e+00
3.7000000e+02		2.8480217e+00		6.7555861e-01		8.0749539e-01		1.6056902e+00
3.7100000e+02		2.8584277e+00		6.8375568e-01		8.0343389e-01		1.6311113e+00
3.7200000e+02		2.8670982e+00		6.9237227e-01		7.9915140e-01		1.6566763e+00
3.7300000e+02		2.8731767e+00		7.0048343e-01		7.9503318e-01		1.6796378e+00
3.7400000e+02		2.8750408e+00		7.0747119e-01		7.9127658e-01		1.6974939e+00
3.7500000e+02		2.8713483e+00		7.1381483e-01		7.8745206e-01		1.7105150e+00
3.7600000e+02		2.8626443e+00		7.1934346e-01		7.8352090e-01		1.7185380e+00
3.7700000e+02		2.8508812e+00		7.2501673e-01		7.7887732e-01		1.7249742e+00
3.7800000e+02		2.8378023e+00		7.3119276e-01		7.7316097e-01		1.7316873e+00
3.7900000e+02		2.8237771e+00		7.3725445e-01		7.6671421e-01		1.7374137e+00
3.8000000e+02		2.8069509e+00		7.4299216e-01		7.5976297e-01		1.7405018e+00
3.8100000e+02		2.7878215e+00		7.4952917e-01		7.5202672e-01		1.7438493e+00
3.8200000e+02		2.7692485e+00		7.5648125e-01		7.4361484e-01		1.7482983e+00
3.8300000e+02		2.7518262e+00		7.6235182e-01		7.3507209e-01		1.7507813e+00
3.8400000e+02		2.7311699e+00		7.6736257e-01		7.2657978e-01		1.7490603e+00
3.8500000e+02		2.7054221e+00		7.7153517e-01		7.1869614e-01		1.7419922e+00
3.8600000e+02		2.6777844e+00		7.7505436e-01		7.1152078e-01		1.7320611e+00
3.8700000e+02		2.6498164e+00		7.7999167e-01		7.0409502e-01		1.7248891e+00
3.8800000e+02		2.6224543e+00		7.8707041e-01		6.9689488e-01		1.7225703e+00
3.8900000e+02		2.5993040e+00		7.9191341e-01		6.9226929e-01		1.7178696e+00
3.9000000e+02		2.5799898e+00		7.9675925e-01		6.8856371e-01		1.7155388e+00
3.9100000e+02		2.5604552e+00		8.1096026e-01		6.8085991e-01		1.7328948e+00
3.9200000e+02		2.5472500e+00		8.1863471e-01		6.7802236e-01		1.7402721e+00
3.9300000e+02		2.5463540e+00		8.2590903e-01		6.7489308e-01		1.7551185e+00
3.9400000e+02		2.5538705e+00		8.3207480e-01		6.7013676e-01		1.7734407e+00
3.9500000e+02		2.5569019e+00		8.3768868e-01		6.6474520e-01		1.7875251e+00
3.9600000e+02		2.5525675e+00		8.4394086e-01		6.5952917e-01		1.7978137e+00
3.9700000e+02		2.5517632e+00		8.4967719e-01		6.5452884e-01		1.8094633e+00
3.9800000e+02		2.5632013e+00		8.5397820e-01		6.4992879e-01		1.8267745e+00
3.9900000e+02		2.5779225e+00		8.5869979e-01		6.4743835e-01		1.8474243e+00
4.0000000e+02		2.5924958e+00		8.6440835e-01		6.4718367e-01		1.8702190e+00
4.0100000e+02		2.6089095e+00		8.7000781e-01		6.4915417e-01		1.8942514e+00
4.0200000e+02		2.6254667e+00		8.7638585e-01		6.5271223e-01		1.9202479e+00
4.0300000e+02		2.6411638e+00		8.8347837e-01		6.5835702e-01		1.9473621e+00
4.0400000e+02		2.6625632e+00		8.9144406e-01		6.6566012e-01		1.9808403e+00
4.0500000e+02		2.7039554e+00		8.9736494e-01		6.7226310e-01		2.0249955e+00
4.0600000e+02		2.7510829e+00		9.0157930e-01		6.7617323e-01		2.0699652e+00
4.0700000e+02		2.7845760e+00		9.0584956e-01		6.7844396e-01		2.1050896e+00
4.0800000e+02		2.8008649e+00		9.1105170e-01		6.8030466e-01		2.1295636e+00
4.0900000e+02		2.8131298e+00		9.1606573e-01		6.8133699e-01		2.1506605e+00
4.1000000e+02		2.8369296e+00		9.1938599e-01		6.7937988e-01		2.1767166e+00
4.1100000e+02		2.8716334e+00		9.2179578e-01		6.7563520e-01		2.2091192e+00
4.1200000e+02		2.9040455e+00		9.2448207e-01		6.7239762e-01		2.2405640e+00
4.1300000e+02		2.9294178e+00		9.2743928e-01		6.7081600e-01		2.2673692e+00
4.1400000e+02		2.9485239e+00		9.3074446e-01		6.7070982e-01		2.2902904e+00
4.1500000e+02		2.9630022e+00		9.3470172e-01		6.7296671e-01		2.3113221e+00
4.1600000e+02		2.9659487e+00		9.4020196e-01		6.7832391e-01		2.3272349e+00
4.1700000e+02		2.9807480e+00		9.4468782e-01		6.8487752e-01		2.3500063e+00
4.1800000e+02		3.0088012e+00		9.4706162e-01		6.8855095e-01		2.3780839e+00
4.1900000e+02		3.0386556e+00		9.4839913e-01		6.8906362e-01		2.4050719e+00
4.2000000e+02		3.0557962e+00		9.5010765e-01		6.8941562e-01		2.4229957e+00
4.2100000e+02		3.0487183e+00		9.5238634e-01		6.9040318e-01		2.4231812e+00
4.2200000e+02		3.0197356e+00		9.5446941e-01		6.9279443e-01		2.4053948e+00
4.2300000e+02		3.0012771e+00		9.5597683e-01		6.9262076e-01		2.3944672e+00
4.2400000e+02		2.9978615e+00		9.5747913e-01		6.8887444e-01		2.3955008e+00
4.2500000e+02		3.0047709e+00		9.5857023e-01		6.8237031e-01		2.4037580e+00
4.2600000e+02		3.0088335e+00		9.5945339e-01		6.7523670e-01		2.4092257e+00
4.2700000e+02		2.9996312e+00		9.6093013e-01		6.6913211e-01		2.4055540e+00
4.2800000e+02		2.9762797e+00		9.6270374e-01		6.6489246e-01		2.3912327e+00
4.2900000e+02		2.9355394e+00		9.6560738e-01		6.6428418e-01		2.3656142e+00
4.3000000e+02		2.9043754e+00		9.6818852e-01		6.6488693e-01		2.3467570e+00
4.3100000e+02		2.8916831e+00		9.6974864e-01		6.6348542e-01		2.3402665e+00
4.3200000e+02		2.8927942e+00		9.7015291e-01		6.5848069e-01		2.3421417e+00
4.3300000e+02		2.8834571e+00		9.7047164e-01		6.5085159e-01		2.3353490e+00
4.3400000e+02		2.8482593e+00		9.7135505e-01		6.4461381e-01		2.3089417e+00
4.3500000e+02		2.7996940e+00		9.7188108e-01		6.4048654e-01		2.2708013e+00
4.3600000e+02		2.7445324e+00		9.7247458e-01		6.3840823e-01		2.2274197e+00
4.3700000e+02		2.6936397e+00		9.7426467e-01		6.3671945e-01		2.1901401e+00
4.3800000e+02		2.6629000e+00		9.7479148e-01		6.3360984e-01		2.1663171e+00
4.3900000e+02		2.6441579e+00		9.7581044e-01		6.2886560e-01		2.1533186e+00
4.4000000e+02		2.6386323e+00		9.7521637e-01		6.2253049e-01		2.1475105e+00
4.4100000e+02		2.6273655e+00		9.7592105e-01		6.1629116e-01		2.1398859e+00
4.4200000e+02		2.6070320e+00		9.7689635e-01		6.1148300e-01		2.1254470e+00
4.4300000e+02		2.5712018e+00		9.7861856e-01		6.1058341e-01		2.0999311e+00
4.4400000e+02		2.5391992e+00		9.8071484e-01		6.1271624e-01		2.0782365e+00
4.4500000e+02		2.5321063e+00		9.8231332e-01		6.1209300e-01		2.0758091e+00
4.4600000e+02		2.5358211e+00		9.8329132e-01		6.0972469e-01		2.0809242e+00
4.4700000e+02		2.5476506e+00		9.8437191e-01		6.0361497e-01		2.0929291e+00
4.4800000e+02		2.5538096e+00		9.8475368e-01		5.9434425e-01		2.0988025e+00
4.4900000e+02		2.5425018e+00		9.8462214e-01		5.8561839e-01		2.0892303e+00
4.5000000e+02		2.5177749e+00		9.8563245e-01		5.7977564e-01		2.0710345e+00
4.5100000e+02		2.4926503e+00		9.8547962e-01		5.7582381e-01		2.0500499e+00
4.5200000e+02		2.4694790e+00		9.8658525e-01		5.7483892e-01		2.0332716e+00
4.5300000e+02		2.4551647e+00		9.8718283e-01		5.7432317e-01		2.0227102e+00
4.5400000e+02		2.4486584e+00		9.8775916e-01		5.7489359e-01		2.0185277e+00
4.5500000e+02		2.4502519e+00		9.8824365e-01		5.7554293e-01		2.0208320e+00
4.5600000e+02		2.4706720e+00		9.8775717e-01		5.7504361e-01		2.0366703e+00
4.5700000e+02		2.4888746e+00		9.8808844e-01		5.7668216e-01		2.0523635e+00
4.5800000e+02		2.5050965e+00		9.8843712e-01		5.7940477e-01		2.0664692e+00
